3.953300 30
3.962100 30
3.973400 30
55.370100 18
55.378300 18
55.389600 18
109.709800 96
109.711500 81
109.712100 78
109.717700 96
109.719400 81
109.720200 78
109.721000 13
109.728400 96
109.729800 13
109.730300 81
109.730900 78
109.741300 13
145.546300 4
145.554600 4
145.566400 4
188.116800 81
188.125600 81
188.136500 81
190.273000 18
190.273300 66
190.281200 18
190.281900 66
190.291600 18
190.292900 66
200.094300 96
200.103100 96
200.113600 96
200.378300 57
200.379200 80
200.379500 44
200.380200 52
200.380800 75
200.380900 69
200.386400 57
200.387600 44
200.387600 80
200.388800 52
200.389000 69
200.389600 75
200.397500 57
200.398200 44
200.399000 80
200.399300 52
200.399800 69
200.401500 75
200.644600 35
200.644700 31
200.645400 57
200.653100 35
200.653300 31
200.654300 57
200.664100 35
200.664600 31
200.666100 57
200.895700 66
200.896600 75
200.897500 7
200.901400 81
200.903200 78
200.903900 70
200.904100 66
200.904700 75
200.905900 7
200.906700 52
200.909900 81
200.912100 78
200.912400 70
200.914900 75
200.915000 66
200.916100 52
200.917300 7
200.920700 81
200.922600 70
200.923300 78
200.928200 52
200.932900 7
200.935900 70
200.991200 53
200.992100 87
200.994100 18
200.994600 4
200.999300 53
201.000600 87
201.002700 18
201.003700 4
201.009900 53
201.011200 87
201.013200 18
201.013900 4
201.025200 87
201.028100 4
201.143200 26
201.143300 75
201.144000 74
201.144800 1
201.144900 37
201.145800 4
201.151600 26
201.152000 75
201.152400 74
201.153400 37
201.153500 1
201.156800 4
201.162400 26
201.162800 74
201.163100 75
201.163500 37
201.164800 1
201.438700 80
201.439300 53
201.442100 48
201.442800 30
201.447300 80
201.447600 53
201.450900 48
201.451500 30
201.458700 53
201.459000 80
201.462800 30
201.923900 2
201.924700 89
201.932000 2
201.932800 89
201.943400 2
201.944100 89
202.184300 69
202.184400 80
202.187900 40
202.192400 80
202.192500 69
202.194700 30
202.195900 40
202.202900 80
202.203500 30
202.203500 69
202.206600 40
202.215200 30
202.764500 29
202.773200 29
202.785500 29
203.149600 45
203.150100 53
203.154400 8
203.155900 51
203.157700 45
203.158300 53
203.162800 8
203.163900 51
203.168100 45
203.168500 53
203.174400 8
203.174600 51
203.468600 52
203.469500 59
203.476900 52
203.478000 59
203.488000 52
203.489200 59
203.520200 95
203.520300 13
203.528500 95
203.528700 13
203.538800 95
203.539300 13
203.551600 95
203.580100 79
203.580500 40
203.581200 81
203.581400 21
203.581700 67
203.583600 31
203.587800 28
203.588000 79
203.588400 40
203.589500 81
203.589600 21
203.589900 67
203.592400 31
203.596800 28
203.599200 79
203.599700 40
203.601100 67
203.601400 81
203.601700 21
203.604300 31
203.608100 28
205.563000 47
205.571000 47
205.582500 47
206.314200 12
206.314200 22
206.314200 30
206.314600 20
206.316200 14
206.316400 49
206.316500 39
206.316500 63
206.316600 37
206.316700 23
206.322100 22
206.322200 30
206.322400 12
206.322500 20
206.324400 14
206.324500 39
206.324600 63
206.324800 37
206.324800 49
206.324900 23
206.332400 22
206.332700 30
206.333300 12
206.333400 20
206.335100 14
206.335400 39
206.335400 63
206.336000 37
206.336300 23
206.336400 49
206.346100 30
206.350000 14
206.351900 49
206.886600 5
206.887800 88
206.894100 5
206.895600 88
206.904900 5
206.907400 88
207.527400 11
207.527700 24
207.527700 35
207.527700 90
207.527900 37
207.528300 45
207.528400 28
207.529000 80
207.529200 59
207.535200 11
207.535600 35
207.535900 37
207.536000 24
207.536100 90
207.536700 45
207.536800 28
207.537500 80
207.537600 59
207.545500 11
207.545800 35
207.546200 37
207.546600 28
207.546700 24
207.546700 90
207.547100 45
207.547800 59
207.548000 80
208.432300 33
208.433200 31
208.440500 33
208.441900 31
208.451400 33
208.453000 31
208.465900 31
208.886200 44
208.890000 63
208.890500 26
208.890600 75
208.894100 44
208.898500 75
208.899200 26
208.899400 63
208.904200 44
208.908200 75
208.910000 26
208.910700 63
208.922200 75
208.923800 26
209.453500 35
209.454900 71
209.461700 35
209.463900 71
209.471900 35
209.475500 71
211.821500 72
211.822300 75
211.823400 66
211.826000 53
211.829300 50
211.829700 72
211.830300 75
211.830900 32
211.831900 66
211.832400 7
211.834000 53
211.837900 50
211.839700 32
211.840500 75
211.840600 72
211.840900 7
211.842900 66
211.844200 53
211.849400 50
211.850900 32
211.851800 7
212.307400 51
212.308300 69
212.308800 65
212.309400 37
212.309900 71
212.310400 81
212.311400 27
212.311500 88
212.311700 30
212.312000 74
212.313700 83
212.315200 51
212.316600 69
212.317000 65
212.318300 71
212.318500 37
212.318800 81
212.319700 27
212.319900 88
212.320000 30
212.320700 74
212.322300 83
212.326100 51
212.327800 65
212.328400 69
212.329300 71
212.329700 81
212.330500 27
212.330600 30
212.331000 88
212.331700 74
212.333800 83
213.965500 80
213.969900 33
213.970100 87
213.970600 2
213.971500 45
213.972600 60
213.972900 65
213.973600 80
213.978200 33
213.978400 87
213.978600 2
213.979600 45
213.980800 65
213.980900 60
213.983900 80
213.988500 33
213.989100 87
213.990000 2
213.990800 45
213.991200 65
213.991900 60
214.575600 29
214.584000 29
214.595800 29
215.501300 56
215.505500 70
215.509500 56
215.513400 70
215.521200 56
215.524600 70
215.937100 19
215.946100 19
215.958400 19
216.206100 68
216.215200 68
216.226600 68
216.231100 75
216.232700 54
216.233900 63
216.234300 77
216.235100 6
216.236000 19
216.238100 86
216.238200 80
216.238700 36
216.238700 75
216.239200 4
216.239300 67
216.239300 72
216.239400 51
216.239400 68
216.239600 0
216.240900 54
216.241000 16
216.241600 13
216.241900 63
216.242400 77
216.243300 6
216.244200 7
216.244500 19
216.244600 23
216.245300 61
216.245400 47
216.245700 82
216.246100 80
216.246100 86
216.246900 36
216.247100 4
216.247200 67
216.247400 72
216.247600 51
216.247700 0
216.249000 16
216.249300 75
216.249700 13
216.251300 54
216.252400 63
216.252900 77
216.253100 7
216.253200 23
216.253900 47
216.254000 6
216.254400 82
216.254600 61
216.255200 19
216.256700 86
216.256800 80
216.257500 67
216.257600 36
216.258100 4
216.258400 0
216.258400 72
216.258600 51
216.259400 16
216.260000 13
216.263400 75
216.263500 7
216.263900 23
216.264500 47
216.265400 82
216.265700 61
216.268300 6
216.268800 19
216.271200 36
216.271600 67
216.272100 86
216.274200 13
216.274800 16
216.276400 72
216.277900 47
216.278000 7
216.280000 61
216.481000 13
216.490700 13
217.177000 6
217.177000 61
217.177300 51
217.178100 53
217.183300 99
217.185300 61
217.185400 6
217.185600 51
217.186100 53
217.191500 99
217.195700 6
217.195800 51
217.195800 61
217.196300 53
217.201900 99
217.428500 11
217.436200 11
217.446300 11
217.638500 60
217.640100 88
217.640500 81
217.640600 57
217.641200 21
217.641500 91
217.641700 35
217.642900 85
217.644600 67
217.645700 99
217.646400 60
217.648300 88
217.648500 81
217.648700 57
217.649700 21
217.649800 91
217.650400 35
217.651400 85
217.653800 67
217.654400 99
217.657200 60
217.659700 57
217.659800 81
217.659800 88
217.661300 21
217.661600 91
217.661800 35
217.663200 85
217.665200 67
218.860500 30
218.869300 30
218.880900 30
219.179000 45
219.180300 89
219.181100 34
219.186900 45
219.188500 89
219.189300 34
219.197700 45
219.199900 89
219.200600 34
219.831800 98
219.840700 98
219.853300 98
219.939800 55
219.940100 58
219.947800 55
219.948000 58
219.958500 58
219.959200 55
219.972400 58
219.973100 55
221.083900 81
221.087300 43
221.092300 81
221.096500 43
221.103200 81
221.108300 43
222.037600 46
222.037700 53
222.037800 6
222.037800 40
222.037900 93
222.038400 80
222.039000 48
222.045600 53
222.045700 6
222.045700 46
222.046000 40
222.046200 93
222.046600 80
222.047600 48
222.055900 53
222.056600 6
222.056600 40
222.056900 46
222.056900 93
222.057000 80
222.057900 48
223.316500 8
223.316700 3
223.316800 63
223.324800 8
223.325100 3
223.325100 63
223.331800 76
223.333600 20
223.333900 53
223.335100 8
223.335300 3
223.335600 63
223.335900 2
223.339900 76
223.341600 20
223.341700 53
223.344700 2
223.350200 76
223.351600 53
223.351900 20
223.356300 2
223.954600 74
223.954700 20
223.962500 74
223.962700 20
223.973100 74
223.973300 20
224.952800 17
224.953400 65
224.961100 17
224.961800 65
224.972000 17
224.973400 65
225.264000 52
225.265500 2
225.267100 44
225.273000 52
225.275000 2
225.275900 44
225.284400 52
225.286500 2
225.287200 44
226.301000 50
226.301900 21
226.302900 91
226.303400 88
226.309300 50
226.310300 21
226.311200 91
226.312000 88
226.319900 50
226.321100 21
226.321200 91
226.322200 88
226.335900 88
226.636400 41
226.638700 84
226.638900 55
226.639100 93
226.644600 41
226.647100 84
226.647200 55
226.647500 93
226.655400 41
226.657500 55
226.657900 84
226.658300 93
227.007800 80
227.008400 53
227.011000 13
227.016100 80
227.016900 53
227.019800 13
227.026200 3
227.027400 53
227.027400 80
227.030800 13
227.034800 3
227.046100 3
227.415700 23
227.424700 23
227.435800 23
227.449900 23
227.897600 85
227.905800 85
227.917800 85
228.439600 23
228.447900 23
228.458500 23
228.699100 86
228.701800 13
228.702000 20
228.702100 61
228.702200 92
228.702300 47
228.702400 8
228.703000 6
228.703400 44
228.706100 38
228.707500 86
228.709900 13
228.710300 51
228.710300 61
228.710500 92
228.710600 20
228.710700 47
228.710800 8
228.711400 6
228.711700 44
228.714900 38
228.717700 86
228.719200 51
228.720300 13
228.720600 20
228.721000 92
228.721100 47
228.721500 8
228.721700 61
228.722500 44
228.722700 6
228.725200 38
228.729700 51
228.731500 86
228.733100 20
228.733900 47
228.734300 13
228.736100 44
228.738700 6
228.847400 2
228.847900 10
228.847900 53
228.848300 33
228.848600 80
228.849200 8
228.849500 24
228.849600 18
228.849800 39
228.849900 55
228.850000 82
228.850100 34
228.850200 16
228.850500 81
228.850600 85
228.851000 6
228.851200 29
228.851400 59
228.851500 77
228.851500 95
228.852100 48
228.852400 3
228.852500 51
228.853500 38
228.853600 93
228.854400 23
228.854500 66
228.855300 2
228.855500 61
228.855600 53
228.855900 10
228.856000 4
228.856200 33
228.856500 83
228.856700 80
228.857600 24
228.857800 18
228.857800 20
228.857800 39
228.857900 55
228.858000 71
228.858100 34
228.858200 16
228.858200 82
228.858300 8
228.858700 85
228.858800 81
228.859100 44
228.859200 29
228.859700 59
228.859900 95
228.860000 77
228.860400 48
228.860700 3
228.861300 6
228.862000 51
228.862100 93
228.862600 23
228.862900 66
228.863200 38
228.864300 4
228.864800 61
228.864800 83
228.865600 53
228.865900 2
228.866400 10
228.866600 33
228.866600 71
228.867600 80
228.868300 18
228.868300 24
228.868300 55
228.868400 20
228.868700 39
228.868800 16
228.869000 82
228.869100 34
228.869300 85
228.869700 81
228.870000 44
228.870200 29
228.870900 59
228.871100 77
228.871200 8
228.871200 48
228.871600 3
228.872000 95
228.873400 93
228.873500 23
228.874400 66
228.874900 4
228.875700 83
228.876200 6
228.876600 51
228.877300 38
228.877900 61
228.877900 71
228.880000 53
228.882400 18
228.882700 55
229.229000 20
229.229200 78
229.230000 27
229.237200 20
229.237400 78
229.238400 27
229.248000 20
229.248600 78
229.249100 27
229.772500 30
229.772500 36
229.772600 56
229.773000 71
229.775500 27
229.777600 48
229.778600 12
229.780500 36
229.780600 30
229.780900 56
229.781000 71
229.783800 27
229.786400 48
229.787400 12
229.791200 36
229.791500 30
229.792000 71
229.792600 56
229.795400 27
229.798900 48
229.799700 12
230.755000 35
230.756200 70
230.763000 35
230.764500 70
230.773400 35
230.775600 70
231.268600 19
231.269300 14
231.271600 13
231.271900 54
231.277400 14
231.277400 19
231.280700 13
231.280700 54
231.288600 14
231.288900 19
231.291700 54
231.292100 13
231.545600 8
231.545900 29
231.546200 46
231.546500 85
231.546600 49
231.553400 8
231.554100 29
231.554500 46
231.555000 49
231.555000 85
231.564200 8
231.564800 29
231.565900 46
231.566400 85
231.566600 49
231.763800 51
231.766400 63
231.766800 2
231.766800 6
231.767000 4
231.767300 95
231.767400 86
231.767700 88
231.769300 81
231.770500 75
231.771200 19
231.771700 51
231.774200 63
231.774800 6
231.775100 4
231.775200 2
231.775700 86
231.775900 95
231.776000 88
231.777800 81
231.778600 75
231.779700 19
231.782900 51
231.784900 63
231.785900 6
231.786400 4
231.787000 88
231.787100 2
231.787400 86
231.787700 95
231.788900 75
231.789300 81
231.790900 19
231.800400 63
233.333000 30
233.341900 30
233.352700 30
233.761100 21
233.761400 69
233.769600 69
233.769700 21
233.779900 69
233.780400 21
234.095200 4
234.095400 47
234.095500 53
234.096500 8
234.103100 47
234.103200 53
234.103300 4
234.104500 8
234.113400 4
234.113500 53
234.113600 47
234.114600 8
234.709500 80
234.710100 33
234.710200 20
234.710400 12
234.717900 80
234.718300 20
234.718400 12
234.718500 33
234.728700 80
234.729000 12
234.729200 33
234.729400 20
234.742400 20
234.742800 33
234.742900 80
234.743400 12
235.029000 48
235.031000 63
235.031300 12
235.033900 29
235.035900 20
235.035900 70
235.036800 48
235.039100 63
235.039600 12
235.042200 29
235.044800 70
235.045100 20
235.047100 48
235.049600 63
235.050700 12
235.053500 29
235.056900 20
235.057600 70
236.506300 3
236.514500 3
236.525000 3
236.780200 23
236.780400 66
236.780500 30
236.780600 61
236.788100 23
236.788400 30
236.788800 66
236.789100 61
236.798300 23
236.798800 30
236.799800 61
236.799900 66
236.935400 16
236.944100 16
236.954500 16
237.659000 16
237.660600 91
237.660900 12
237.662100 30
237.662100 53
237.667400 16
237.668800 91
237.669500 12
237.670300 53
237.671100 30
237.678300 16
237.679100 91
237.680300 12
237.680800 53
237.682200 30
237.691900 91
237.693000 46
237.693300 53
237.695200 30
237.701400 46
237.712300 46
237.998600 59
237.999100 94
237.999200 56
238.000200 36
238.002300 69
238.002600 23
238.002900 37
238.003500 26
238.004000 87
238.006100 90
238.006800 59
238.007300 94
238.007400 56
238.008600 36
238.010700 69
238.011000 23
238.011200 37
238.012100 26
238.012200 87
238.015100 90
238.017800 59
238.018500 94
238.018800 56
238.019600 36
238.021800 69
238.022400 23
238.022600 37
238.023400 87
238.023500 26
238.026000 90
238.623000 15
238.623000 27
238.624000 76
238.624100 42
238.624300 73
238.624400 19
238.627300 48
238.631200 15
238.631400 27
238.632200 42
238.632500 76
238.632800 73
238.632900 19
238.636100 48
238.641600 15
238.642000 27
238.642900 42
238.643300 76
238.643400 19
238.643500 73
238.646900 48
238.838400 42
238.847600 42
238.859500 42
239.312700 20
239.321100 20
239.332600 20
239.347600 20
239.561900 29
239.570200 29
239.581500 29
239.664600 84
239.665000 52
239.665500 60
239.665600 83
239.667300 23
239.669000 69
239.670200 86
239.672500 29
239.672900 84
239.673100 52
239.673600 60
239.673900 83
239.676000 23
239.677700 69
239.679000 86
239.683900 84
239.684300 52
239.684300 60
239.684400 29
239.684800 83
239.687900 23
239.689500 69
239.690600 86
240.466700 87
240.467300 95
240.475400 87
240.476000 95
240.486100 87
240.486400 95
240.667000 64
240.675400 64
240.686700 64
241.258200 53
241.260300 44
241.260600 85
241.260900 8
241.260900 50
241.261500 19
241.261500 76
241.261600 64
241.262600 47
241.265800 18
241.265800 93
241.266200 53
241.266400 66
241.266700 55
241.268200 44
241.268600 85
241.268900 8
241.269100 50
241.269400 76
241.269600 19
241.269900 64
241.270900 47
241.273700 93
241.274300 18
241.274900 66
241.275200 55
241.276300 53
241.278600 44
241.279300 85
241.279700 8
241.279700 76
241.280500 50
241.280700 19
241.280800 64
241.281800 47
241.284800 93
241.285100 18
241.285800 66
241.286400 55
241.442100 87
241.443400 24
241.444000 5
241.450600 87
241.451900 24
241.452300 5
241.462000 87
241.462800 24
241.462900 5
241.972500 88
241.981400 88
241.993300 88
242.296000 39
242.304600 39
242.315300 39
243.044700 65
243.045800 8
243.052800 65
243.054200 8
243.062700 65
243.064300 8
243.489500 13
243.489500 37
243.489700 27
243.497700 37
243.497800 13
243.497800 27
243.508000 27
243.508600 37
243.509700 13
243.840000 71
243.841000 30
243.845100 96
243.845800 92
243.846800 94
243.848100 71
243.849000 30
243.853500 96
243.854600 92
243.855300 94
243.859100 71
243.859400 30
243.864600 96
243.865800 92
243.866700 94
244.211800 95
244.212500 21
244.212600 53
244.214000 69
244.214500 50
244.214700 6
244.214800 84
244.214900 32
244.215100 8
244.215100 75
244.215100 87
244.215200 26
244.215300 51
244.220100 95
244.220800 21
244.220900 53
244.222600 69
244.222800 6
244.222900 50
244.223200 84
244.223400 8
244.223400 32
244.223600 75
244.223600 87
244.223700 26
244.223800 51
244.230900 95
244.231200 53
244.232300 21
244.232900 6
244.233500 50
244.233600 8
244.233900 69
244.233900 84
244.234000 32
244.234000 75
244.234300 87
244.234500 51
244.234800 26
244.248500 6
247.327300 53
247.328400 75
247.333300 47
247.334700 8
247.335000 53
247.335000 62
247.336100 75
247.342000 47
247.342900 8
247.343200 62
247.345200 53
247.345900 75
247.353500 47
247.354400 62
247.354500 8
248.289400 49
248.289600 63
248.290400 36
248.290800 51
248.292100 30
248.292100 31
248.292200 85
248.292600 71
248.293500 0
248.293500 95
248.295300 27
248.297400 49
248.297400 77
248.297500 41
248.297600 63
248.298400 36
248.298600 51
248.300000 31
248.300600 30
248.300600 85
248.300700 71
248.301400 0
248.301600 95
248.303400 27
248.306600 77
248.306700 41
248.307900 49
248.308200 63
248.309000 51
248.309200 36
248.310900 31
248.312200 85
248.312300 30
248.312500 71
248.312600 0
248.312800 95
248.314700 27
248.318800 41
248.319600 77
248.536100 27
248.537300 49
248.538400 81
248.538900 21
248.539600 20
248.544400 27
248.545700 49
248.546700 81
248.547600 21
248.547900 20
248.556600 27
248.556900 81
248.557100 49
248.558000 20
248.558400 21
248.815100 9
248.815400 62
248.816300 88
248.816500 99
248.817000 69
248.817600 34
248.823300 62
248.823500 9
248.824500 88
248.824700 99
248.825400 69
248.826100 34
248.833700 62
248.834900 9
248.835200 88
248.836100 99
248.836600 69
248.837300 34
248.846800 62
248.848900 9
249.637700 51
249.638100 45
249.638700 8
249.638900 2
249.639100 23
249.645900 51
249.646200 45
249.647100 2
249.647100 8
249.647700 23
249.657000 51
249.657600 45
249.657800 2
249.658500 8
249.658700 23
249.689000 90
249.697300 90
249.707800 90
250.948200 23
250.956600 23
250.967700 23
250.981900 23
251.096800 81
251.097600 14
251.104800 81
251.105900 14
251.115500 81
251.116900 14
251.556500 67
251.564500 67
251.575100 67
252.931900 60
252.932600 13
252.932800 23
252.933200 81
252.933900 94
252.934000 28
252.934900 71
252.937000 30
252.938900 18
252.938900 35
252.939700 60
252.940600 23
252.940800 13
252.941500 81
252.941900 94
252.942100 28
252.943300 71
252.945500 30
252.947400 18
252.947500 35
252.950500 60
252.951300 23
252.952200 13
252.952700 81
252.953100 94
252.953700 28
252.955700 71
252.957600 30
252.958900 18
252.959400 35
252.969000 13
252.970400 81
254.013000 85
254.013300 53
254.016200 37
254.018900 89
254.020900 53
254.020900 85
254.022700 13
254.023900 37
254.025100 87
254.025600 78
254.025700 8
254.027200 89
254.030300 53
254.030700 13
254.031100 85
254.033100 87
254.033600 37
254.033700 78
254.034200 8
254.037700 89
254.041700 13
254.043500 87
254.044600 8
254.044900 78
254.224300 36
254.232600 5
254.232800 36
254.241300 5
254.243800 36
254.252200 5
254.503600 32
254.506100 48
254.506600 45
254.507300 53
254.507500 20
254.507600 27
254.507600 87
254.508400 18
254.508400 81
254.508500 71
254.511600 32
254.513900 48
254.514600 45
254.515000 53
254.515300 27
254.515400 20
254.515900 87
254.516300 18
254.516500 81
254.516600 71
254.521200 32
254.524000 48
254.525000 45
254.525100 27
254.525400 20
254.525400 53
254.526500 18
254.526500 71
254.526800 87
254.527200 81
254.535000 32
254.538200 45
254.538500 53
254.538800 27
254.541100 71
254.678400 48
254.688300 48
254.701400 48
255.713700 64
255.714000 49
255.714300 32
255.714500 66
255.721900 64
255.722500 49
255.722700 32
255.722700 66
255.731900 64
255.732700 32
255.732900 49
255.733000 66
255.747300 49
255.747700 66
256.299600 56
256.299700 64
256.299900 91
256.300300 97
256.300400 48
256.300400 95
256.301000 7
256.301100 14
256.301100 37
256.301100 80
256.302100 24
256.302300 44
256.302500 50
256.303100 38
256.305300 10
256.307000 4
256.307300 22
256.307500 56
256.307600 64
256.307800 85
256.307900 91
256.308100 77
256.308300 48
256.308300 88
256.308300 97
256.308500 59
256.308600 33
256.308700 95
256.309000 14
256.309100 7
256.309100 37
256.309500 80
256.309900 24
256.310200 44
256.310200 50
256.311100 38
256.313500 10
256.314900 4
256.315700 22
256.315700 85
256.316100 88
256.316200 59
256.316400 77
256.316500 33
256.317100 56
256.317200 64
256.317800 91
256.318400 48
256.318500 97
256.318700 95
256.319300 14
256.319300 37
256.319400 80
256.319500 7
256.319600 24
256.320100 50
256.320800 44
256.321100 38
256.324500 10
256.325200 4
256.325900 85
256.326400 22
256.326400 88
256.326500 59
256.326800 33
256.327500 77
256.672200 81
256.680800 81
256.688800 96
256.689200 56
256.690400 32
256.691100 81
256.696900 96
256.697200 56
256.699000 32
256.707800 96
256.708200 56
256.710800 32
256.959200 63
256.967400 63
256.978600 63
257.978100 54
257.978600 13
257.978600 32
257.979100 29
257.986400 54
257.986700 32
257.986800 13
257.987200 29
257.997100 54
257.997300 13
257.997400 32
257.997700 29
258.583600 61
258.584000 76
258.584200 71
258.592100 61
258.592400 76
258.592600 71
258.603500 76
258.603900 71
258.604300 61
262.078700 33
262.081300 40
262.081700 58
262.083600 81
262.086200 45
262.086500 71
262.087000 33
262.090100 58
262.090200 40
262.092200 81
262.094800 45
262.095400 71
262.098400 33
262.101400 58
262.102700 40
262.103800 81
262.106100 45
262.106300 71
262.113200 33
262.264000 34
262.264500 49
262.265700 63
262.267000 85
262.267100 48
262.268000 18
262.270600 79
262.271800 55
262.272100 34
262.272700 49
262.273700 63
262.275300 85
262.275500 48
262.276400 18
262.278800 79
262.280000 55
262.282100 34
262.283500 49
262.284000 63
262.285400 48
262.285500 85
262.286500 18
262.289000 79
262.289800 55
262.530800 31
262.531900 64
262.532000 34
262.532100 14
262.532600 27
262.532900 12
262.533200 1
262.533200 61
262.533800 4
262.534000 37
262.534000 67
262.534100 47
262.534300 70
262.534500 98
262.535400 81
262.538500 31
262.539700 64
262.539800 14
262.539900 34
262.540400 27
262.540600 12
262.540800 1
262.540900 61
262.541500 4
262.541800 67
262.542000 37
262.542000 47
262.542200 98
262.542300 70
262.543400 81
262.548500 31
262.550100 64
262.550200 14
262.550800 34
262.551000 61
262.551100 27
262.551200 1
262.551200 12
262.551700 4
262.552300 67
262.552500 37
262.552800 47
262.552800 98
262.553300 70
262.553700 81
262.563800 64
262.568400 67
263.247300 12
263.247700 23
263.247900 61
263.248100 67
263.248500 18
263.248600 75
263.248800 16
263.249400 42
263.249800 30
263.250300 14
263.250700 51
263.250900 99
263.255700 12
263.255800 23
263.256600 61
263.256800 67
263.256800 75
263.256900 18
263.257100 16
263.257800 42
263.258200 30
263.258600 14
263.259200 51
263.259300 99
263.266100 23
263.266800 75
263.266900 12
263.267000 67
263.267200 61
263.267800 18
263.268400 30
263.268900 16
263.269200 42
263.269300 14
263.269900 51
263.270200 99
264.342500 11
264.345000 48
264.347100 3
264.347100 86
264.347400 83
264.347600 94
264.348000 69
264.348300 92
264.350400 11
264.353100 48
264.355400 3
264.355400 86
264.355700 83
264.356100 69
264.356200 94
264.357100 92
264.361000 11
264.364100 48
264.366000 86
264.366300 83
264.366500 3
264.366800 69
264.367300 94
264.368300 92
264.376400 11
264.379700 69
264.525500 34
264.525800 10
264.526100 22
264.526400 47
264.527200 86
264.533800 34
264.534300 22
264.534500 10
264.534900 47
264.536600 86
264.544100 34
264.544900 22
264.545400 47
264.545500 10
264.558800 47
265.858700 13
265.859900 2
265.860100 3
265.860200 51
265.861400 65
265.861800 30
265.865800 0
265.866000 39
265.866700 13
265.867900 2
265.868300 51
265.869100 3
265.869900 65
265.870200 30
265.874500 0
265.875000 39
265.876900 13
265.878300 2
265.879000 51
265.880400 3
265.880400 30
265.880800 65
265.884900 0
265.885800 39
265.891800 13
265.892200 2
265.895100 30
266.394800 35
266.402900 35
266.414400 35
267.803100 53
267.803200 8
267.811100 8
267.811200 53
267.821000 8
267.821900 53
268.295800 23
268.296400 37
268.297200 77
268.299300 80
268.301100 29
268.303300 23
268.304800 37
268.306000 77
268.307300 80
268.309400 29
268.312900 23
268.315000 37
268.318000 77
268.318100 80
268.320700 29
268.328000 37
268.332000 80
269.408700 92
269.409100 99
269.410400 69
269.410800 10
269.411900 86
269.412100 51
269.412200 0
269.413200 80
269.413300 61
269.416500 92
269.417100 99
269.418400 69
269.418900 10
269.420100 0
269.420300 86
269.420400 51
269.421600 80
269.421700 61
269.427000 92
269.427500 99
269.428100 69
269.428900 10
269.429800 0
269.430400 86
269.430600 51
269.431400 80
269.431900 61
269.441000 10
269.443400 0
269.444500 86
269.445800 51
269.446200 80
269.463000 51
269.932000 30
269.935100 35
269.935100 49
269.936000 94
269.936200 76
269.940000 30
269.943300 35
269.943300 49
269.944400 76
269.945100 94
269.950200 30
269.953500 35
269.953500 49
269.955600 76
269.956100 94
270.161900 37
270.162600 93
270.163000 51
270.170100 37
270.171000 93
270.171300 51
270.180100 37
270.181700 51
270.182100 93
270.193300 37
270.196100 51
271.424400 18
271.429800 96
271.432300 18
271.432300 59
271.437900 96
271.440100 59
271.441800 18
271.448600 96
271.451200 59
271.618600 96
271.618700 65
271.620400 51
271.626900 65
271.627300 96
271.628500 51
271.637400 65
271.638700 51
271.638900 96
272.461100 0
272.461600 89
272.461700 63
272.462100 47
272.462400 40
272.463800 34
272.464200 8
272.464300 45
272.464300 79
272.464600 2
272.465600 48
272.465800 62
272.465900 12
272.466700 70
272.469200 0
272.469200 63
272.469500 89
272.469800 47
272.470600 40
272.471800 34
272.472100 79
272.472300 45
272.472500 8
272.472900 2
272.473800 48
272.473900 62
272.474700 12
272.475400 70
272.479900 0
272.479900 63
272.480400 89
272.481000 47
272.481600 40
272.482600 34
272.483100 79
272.483200 45
272.484000 2
272.484600 8
272.484800 48
272.485100 62
272.485900 12
272.486500 70
273.885900 32
273.887400 18
273.888600 30
273.889300 45
273.894300 32
273.895600 18
273.896800 30
273.897500 45
273.905200 32
273.905400 18
273.906100 13
273.906900 30
273.906900 93
273.908500 45
273.915000 13
273.916000 93
273.926100 13
273.927000 93
274.249500 70
274.250100 7
274.258300 70
274.259100 7
274.269200 70
274.270400 7
274.855300 55
274.855900 17
274.855900 62
274.856000 57
274.863500 55
274.863800 62
274.864000 17
274.864100 57
274.873900 62
274.874300 17
274.874400 55
274.874900 57
276.072400 55
276.072600 8
276.072600 51
276.072900 48
276.073200 92
276.075600 24
276.075800 26
276.076600 75
276.080500 55
276.081000 51
276.081100 8
276.081100 48
276.081600 92
276.083900 24
276.084200 26
276.085100 75
276.091700 51
276.091700 55
276.092400 8
276.092400 48
276.092600 92
276.095700 24
276.095900 26
276.096300 75
276.789400 22
276.789900 65
276.790200 48
276.791800 63
276.797800 22
276.798600 48
276.798700 65
276.800000 63
276.808700 22
276.808900 48
276.809900 65
276.810400 63
277.011700 28
277.020500 28
277.031700 28
277.281300 30
277.281300 53
277.284400 19
277.286500 72
277.286600 99
277.287900 7
277.289300 30
277.289400 53
277.292900 19
277.295200 99
277.295600 72
277.296600 7
277.299500 30
277.299500 53
277.303800 19
277.306100 99
277.307000 72
277.307200 7
277.643100 83
277.643700 50
277.644300 33
277.644700 65
277.651400 83
277.652000 50
277.652700 33
277.653000 65
277.661800 83
277.663000 50
277.663100 33
277.663300 65
277.674100 83
277.676600 65
278.023900 12
278.024600 99
278.026200 92
278.027800 14
278.028800 67
278.032000 12
278.032900 99
278.033900 92
278.036300 14
278.036800 67
278.042200 12
278.043600 99
278.043900 92
278.046800 14
278.046800 67
278.059700 67
278.062300 14
278.077200 67
278.079100 14
278.079600 13
278.080400 37
278.081100 96
278.081500 34
278.081600 48
278.082100 47
278.082600 89
278.083500 91
278.084100 78
278.084200 72
278.087800 13
278.088400 37
278.089000 96
278.089300 34
278.089700 48
278.090000 47
278.090500 89
278.091900 91
278.092400 72
278.092400 78
278.098400 13
278.098900 37
278.099500 96
278.099600 34
278.100600 48
278.100800 89
278.101000 47
278.103000 78
278.103100 72
278.103800 91
278.113900 96
278.225600 35
278.225800 30
278.225800 45
278.226000 21
278.228200 18
278.233800 30
278.233800 35
278.234000 45
278.234700 21
278.236500 18
278.243300 30
278.244000 45
278.244500 35
278.245700 21
278.247400 18
279.120300 2
279.120600 74
279.127800 12
279.128200 2
279.128800 74
279.136000 12
279.139000 2
279.139900 74
279.147100 12
279.172300 33
279.172400 68
279.172500 36
279.174300 89
279.174400 24
279.174500 75
279.175200 96
279.175900 19
279.176500 18
279.176500 54
279.180400 33
279.180700 36
279.180700 68
279.182300 89
279.182700 24
279.182900 75
279.183500 96
279.184000 19
279.184700 54
279.184900 18
279.191000 33
279.191500 68
279.191600 36
279.193000 89
279.193100 24
279.193400 75
279.193700 96
279.194100 19
279.194900 54
279.195800 18
279.363900 95
279.364500 20
279.365100 12
279.365300 89
279.371600 95
279.372200 20
279.373800 12
279.373900 89
279.382300 20
279.382400 95
279.385000 12
279.527600 33
279.536300 33
279.547000 33
282.416000 45
282.424600 45
282.435500 45
283.086900 47
283.095700 47
283.106800 47
283.120100 47
283.628100 2
283.628300 29
283.628500 53
283.631100 92
283.631600 76
283.633200 96
283.633700 70
283.634300 61
283.635700 2
283.636100 53
283.636200 29
283.639000 92
283.639800 76
283.641600 70
283.641800 96
283.642500 61
283.646100 2
283.646100 53
283.646700 29
283.649600 92
283.650600 76
283.652900 70
283.653600 96
283.653900 61
284.446000 44
284.447500 29
284.454500 44
284.456100 29
284.464900 44
284.467100 29
284.480800 29
285.405700 23
285.406000 27
285.406200 96
285.407800 26
285.414000 23
285.414100 27
285.414700 96
285.416200 26
285.424700 27
285.424800 23
285.426100 96
285.427700 26
286.859700 93
286.859900 10
286.860200 14
286.860700 37
286.860800 53
286.860900 85
286.861000 67
286.861200 57
286.861300 12
286.861500 70
286.861800 74
286.862200 58
286.862500 3
286.862500 51
286.862700 23
286.867200 10
286.867200 93
286.867800 14
286.868400 37
286.868500 53
286.868800 12
286.868800 85
286.868900 67
286.869100 57
286.869400 70
286.869800 74
286.870000 58
286.870300 3
286.870500 51
286.870900 23
286.877500 10
286.877600 93
286.878300 14
286.878500 37
286.878800 53
286.878900 85
286.879200 12
286.879600 67
286.879600 70
286.879800 57
286.880600 74
286.880800 3
286.880900 51
286.881900 58
286.882200 23
286.956800 9
286.956800 90
286.958900 26
286.959300 89
286.960700 3
286.965300 90
286.965400 9
286.967700 26
286.968000 89
286.971800 3
286.975400 90
286.976300 9
286.978300 26
286.978400 89
287.244200 19
287.244300 30
287.244900 71
287.248000 18
287.248300 43
287.248800 13
287.252200 30
287.252300 19
287.252900 34
287.252900 37
287.253300 71
287.256200 18
287.256600 43
287.257000 13
287.261400 34
287.261400 37
287.262100 30
287.262900 19
287.263800 71
287.266200 18
287.267400 13
287.267700 43
287.271300 34
287.272000 37
287.274900 30
287.276800 19
287.278600 18
287.828200 27
287.828200 80
287.828400 78
287.829100 18
287.829200 3
287.829300 86
287.830900 96
287.836800 78
287.836800 80
287.836900 27
287.837700 18
287.838000 3
287.838000 86
287.840500 96
287.848200 78
287.848500 80
287.848700 27
287.848900 3
287.849100 18
287.850000 86
287.852600 96
288.904200 48
288.912800 48
288.923900 48
289.710600 18
289.710800 20
289.714300 53
289.714500 84
289.714800 29
289.714900 96
289.715600 14
289.715600 36
289.715700 27
289.718400 20
289.718500 18
289.719800 35
289.720800 50
289.721600 53
289.722200 84
289.722400 29
289.722400 96
289.723000 36
289.723100 14
289.723200 27
289.727200 20
289.727800 18
289.728100 35
289.728900 50
289.730400 53
289.731800 29
289.732000 96
289.732200 27
289.732200 84
289.732400 36
289.732500 14
289.737900 35
289.738600 50
289.738900 20
289.741100 18
289.742200 53
289.922100 45
289.922200 29
289.930400 45
289.930800 29
289.941400 45
289.942600 29
291.617900 16
291.626100 16
291.637200 16
292.224600 5
292.227400 47
292.232600 5
292.236700 47
292.243600 5
292.247800 47
293.257000 36
293.257100 95
293.257200 3
293.257600 40
293.258000 55
293.259100 53
293.259800 27
293.260200 37
293.261000 91
293.261300 26
293.262800 50
293.263800 42
293.264800 36
293.265000 95
293.265100 3
293.265700 40
293.265800 55
293.266600 53
293.267700 27
293.268400 37
293.269200 26
293.269500 91
293.270900 50
293.272000 42
293.274500 95
293.275000 36
293.275300 3
293.275500 55
293.275700 40
293.276300 53
293.278100 27
293.278300 37
293.278600 26
293.279600 91
293.280800 50
293.282500 42
293.635300 35
293.637400 31
293.641400 29
293.643400 35
293.645900 31
293.650100 29
293.654200 35
293.656400 31
293.660900 29
294.604000 51
294.604500 62
294.604900 29
294.605300 13
294.605300 95
294.606300 36
294.606500 32
294.606800 26
294.609100 97
294.611200 41
294.612200 51
294.612600 62
294.613100 29
294.613400 95
294.613500 13
294.614300 36
294.614700 32
294.615300 26
294.618200 97
294.620400 41
294.623600 51
294.623800 62
294.624100 29
294.624200 13
294.624600 95
294.625100 36
294.625600 32
294.626400 26
294.629500 97
294.631100 41
294.705000 59
294.705100 33
294.706600 35
294.706900 12
294.706900 85
294.707300 23
294.707400 20
294.707700 48
294.708200 31
294.708200 78
294.711000 43
294.711400 45
294.712900 59
294.713100 33
294.713900 81
294.714600 35
294.715000 12
294.715000 85
294.715200 23
294.715600 48
294.715800 20
294.716500 31
294.716500 78
294.719300 43
294.719800 45
294.722800 81
294.723300 59
294.723500 33
294.725000 35
294.725500 12
294.725500 23
294.725700 48
294.725800 85
294.727000 78
294.727100 31
294.727300 20
294.730000 45
294.730500 43
294.732600 81
295.108800 48
295.109000 62
295.109000 65
295.116600 48
295.116800 62
295.117000 65
295.127400 48
295.127500 65
295.127600 62
295.312800 33
295.322000 33
295.333300 33
295.335900 49
295.336200 85
295.337300 32
295.337300 71
295.337900 51
295.338200 30
295.344300 49
295.344700 85
295.345600 32
295.346300 51
295.346300 71
295.346700 30
295.348800 33
295.354900 49
295.355600 85
295.355900 32
295.356800 51
295.357000 71
295.357200 30
295.368100 49
295.369500 26
295.370000 51
295.370700 30
295.371800 70
295.377900 26
295.380600 70
295.388600 26
295.391000 70
296.908300 37
296.909400 54
296.911900 30
296.916000 37
296.917800 54
296.920000 30
296.926500 37
296.929100 54
296.931000 30
297.965000 41
297.965500 30
297.965500 96
297.965600 69
297.965700 23
297.965700 99
297.965800 86
297.966200 3
297.966300 36
297.966300 62
297.966500 48
297.966600 0
297.966600 51
297.966700 90
297.966900 9
297.967200 56
297.967300 31
297.967500 82
297.967600 18
297.967600 26
297.968000 65
297.968600 92
297.968800 21
297.969000 84
297.969400 78
297.969500 7
297.969600 88
297.970300 43
297.970700 79
297.972500 41
297.972900 30
297.973100 23
297.973200 96
297.973400 99
297.973500 69
297.973600 86
297.973900 3
297.974000 48
297.974000 71
297.974200 36
297.974300 62
297.974600 0
297.974600 9
297.974600 51
297.974700 90
297.974900 31
297.974900 56
297.975400 18
297.975400 82
297.975600 26
297.975600 65
297.976400 92
297.976800 21
297.977300 84
297.977400 7
297.977800 78
297.978000 88
297.979000 43
297.979000 79
297.982300 41
297.982600 71
297.982900 23
297.982900 30
297.983300 69
297.983500 96
297.983700 3
297.983700 48
297.983800 99
297.983900 86
297.984500 36
297.984600 9
297.984700 62
297.984900 31
297.985100 0
297.985200 56
297.985300 51
297.985400 90
297.985700 18
297.985900 82
297.986200 65
297.986300 26
297.986600 92
297.987200 21
297.987500 7
297.987900 84
297.988600 78
297.988600 88
297.989700 79
297.989800 43
297.992600 71
298.856700 88
298.859500 4
298.865000 88
298.868100 4
298.875700 88
298.878300 4
300.012500 57
300.012700 92
300.013700 81
300.020800 92
300.021000 57
300.022300 81
300.029200 37
300.030700 32
300.031400 92
300.031800 57
300.032700 81
300.033200 16
300.037400 37
300.038800 32
300.041800 16
300.048100 37
300.048800 32
300.052500 16
300.062100 37
300.236300 14
300.244500 14
300.255200 14
300.924000 9
300.924600 75
300.924900 49
300.925500 76
300.926000 2
300.926000 53
300.926500 44
300.927000 83
300.927200 66
300.928400 16
300.931600 9
300.932100 75
300.932500 49
300.933600 76
300.933900 53
300.934000 2
300.934100 44
300.934300 83
300.935100 66
300.935200 23
300.936500 16
300.941900 9
300.941900 75
300.942500 49
300.943600 2
300.943700 23
300.943900 53
300.944200 44
300.944300 83
300.944500 76
300.944700 66
300.946600 16
300.954400 23
301.168700 84
301.176900 84
301.188000 84
301.366900 25
301.367400 89
301.367400 97
301.367500 10
301.367700 55
301.369700 79
301.370000 36
301.370000 63
301.370100 8
301.370200 87
301.370300 76
301.370400 40
301.370500 48
301.370600 45
301.371100 70
301.371200 78
301.371300 9
301.371300 29
301.372000 65
301.372000 68
301.374800 25
301.375200 89
301.375400 55
301.375500 97
301.375700 10
301.377500 79
301.377900 63
301.377900 87
301.378000 36
301.378100 8
301.378300 48
301.378300 76
301.378400 40
301.378500 45
301.379200 29
301.379300 78
301.379500 70
301.379700 9
301.380000 65
301.380100 68
301.385200 25
301.385600 89
301.385700 10
301.385700 55
301.385700 97
301.387500 79
301.387900 87
301.388000 36
301.388300 63
301.388400 48
301.388400 76
301.388500 8
301.388500 40
301.388900 45
301.390000 78
301.390100 29
301.390300 70
301.390500 65
301.390900 68
301.391000 9
301.957400 26
301.963600 69
301.965900 26
301.972800 69
301.976600 26
301.983300 69
303.169900 19
303.177700 19
303.187600 19
303.236200 29
303.236700 51
303.244300 29
303.244800 51
303.254700 29
303.255000 51
303.946900 48
303.951100 16
303.955300 48
303.960200 16
303.965800 48
303.972400 16
305.018500 14
305.018600 3
305.018700 92
305.019600 62
305.024800 0
305.026500 3
305.026600 14
305.026700 32
305.026800 48
305.026800 92
305.027800 62
305.033300 0
305.034800 32
305.034900 48
305.036400 3
305.036700 14
305.037200 92
305.038000 62
305.043300 0
305.044700 48
305.045000 32
306.134000 37
306.142300 37
306.153100 37
306.568300 40
306.569100 62
306.569200 33
306.570100 29
306.570100 92
306.570700 67
306.570800 10
306.572700 58
306.574300 80
306.576200 40
306.576700 62
306.576900 33
306.577900 29
306.578000 92
306.578600 67
306.578800 10
306.581100 58
306.583400 80
306.586900 40
306.587300 62
306.587800 33
306.589100 29
306.589400 92
306.589800 10
306.590000 67
306.593000 58
306.595400 80
306.988400 8
306.990700 15
306.995800 8
306.998200 15
307.005500 8
307.008900 15
307.683000 45
307.683000 95
307.690800 95
307.690900 45
307.701600 95
307.702300 45
307.716400 45
308.053100 45
308.053200 0
308.061400 45
308.061500 0
308.072000 45
308.073000 0
308.327300 36
308.335500 36
308.345600 36
308.355700 6
308.355900 40
308.356900 80
308.357800 33
308.357900 62
308.358500 5
308.363200 48
308.363900 40
308.364100 6
308.365400 80
308.365900 62
308.366100 33
308.366800 5
308.371700 48
308.374300 40
308.375500 6
308.376300 62
308.376300 80
308.376400 33
308.377900 5
308.381300 48
308.396300 48
308.457300 26
308.458600 74
308.465900 26
308.467100 74
308.476500 26
308.478000 74
309.441600 88
309.450300 88
309.460400 88
311.653100 90
311.656200 0
311.656600 18
311.656800 84
311.660900 90
311.664700 0
311.665000 84
311.665500 18
311.671200 90
311.675700 0
311.676100 84
311.676400 18
312.662500 28
312.663100 74
312.665100 87
312.670900 28
312.671400 74
312.673900 87
312.681700 28
312.682200 74
312.684600 87
312.799600 76
312.800200 27
312.800800 3
312.802500 62
312.802800 41
312.804800 74
312.807600 76
312.808100 27
312.808900 3
312.810300 62
312.810900 41
312.814300 74
312.818400 27
312.818500 76
312.819300 3
312.820500 62
312.821000 41
312.827100 74
312.832600 3
312.841500 74
312.846200 6
312.846700 4
312.847500 88
312.848500 33
312.848900 65
312.850800 50
312.854100 6
312.854700 4
312.855300 88
312.856900 33
312.856900 65
312.859300 50
312.864900 6
312.865400 4
312.866100 88
312.867500 65
312.868100 33
312.870600 50
312.943000 75
312.950600 75
312.960500 75
312.975700 75
313.631100 48
313.636000 60
313.638800 48
313.644200 60
313.648500 48
313.654600 60
313.669200 60
313.868700 26
313.869900 35
313.870300 84
313.870400 16
313.870700 36
313.876600 26
313.878700 35
313.878800 84
313.879100 36
313.879200 16
313.887200 26
313.889400 84
313.889700 16
313.890100 36
313.890500 35
314.822800 96
314.830700 96
314.841100 96
315.895100 53
315.895300 20
315.895800 83
315.902800 53
315.902900 20
315.903800 83
315.913300 20
315.913600 53
315.914900 83
317.905400 41
317.913500 41
317.924100 41
319.436600 47
319.436700 45
319.437200 98
319.437500 50
319.437600 58
319.438000 33
319.438600 8
319.445000 47
319.445200 45
319.445700 50
319.445800 98
319.445900 58
319.446100 33
319.446900 8
319.455700 45
319.455800 47
319.455900 58
319.456100 50
319.456300 98
319.456800 33
319.457500 8
320.328000 30
320.328600 23
320.331600 15
320.332100 28
320.332500 25
320.333400 19
320.334000 3
320.335700 30
320.336200 23
320.339800 15
320.340000 28
320.340500 25
320.341200 19
320.341800 3
320.345600 30
320.346100 23
320.350000 15
320.350900 28
320.351500 25
320.351900 19
320.352100 3
320.359100 30
320.359700 23
320.363100 15
320.367400 19
320.368800 3
320.558400 88
320.567000 88
320.578000 88
320.590500 88
320.725600 64
320.725700 66
320.733200 64
320.733900 66
320.743700 64
320.744600 66
320.958300 41
320.958800 6
320.961000 37
320.961100 90
320.962300 23
320.963000 85
320.963100 42
320.964300 88
320.964400 29
320.966000 47
320.966500 41
320.966800 6
320.969000 24
320.969000 37
320.969000 90
320.970500 17
320.970500 23
320.971200 42
320.971400 85
320.972300 29
320.972600 88
320.973900 47
320.977000 41
320.977100 6
320.977700 24
320.979000 17
320.979300 90
320.979900 37
320.980800 23
320.981400 42
320.981600 85
320.982500 29
320.983500 88
320.984400 47
320.989800 24
320.990000 17
321.715600 5
321.716000 11
321.717300 0
321.717900 16
321.718000 86
321.720200 60
321.721300 89
321.723700 5
321.724400 11
321.725600 0
321.726300 86
321.726500 16
321.728600 60
321.730000 89
321.733600 5
321.734300 11
321.735900 86
321.736000 0
321.736800 16
321.738600 60
321.740400 89
321.748900 86
321.750100 16
321.751200 60
321.753800 89
322.500700 15
322.508600 15
322.519400 15
322.721200 68
322.722400 80
322.725700 20
322.729600 68
322.730400 80
322.733900 20
322.740400 68
322.741100 80
322.744500 20
323.282800 27
323.285200 77
323.286400 89
323.286500 88
323.286800 24
323.287200 53
323.289400 80
323.289500 7
323.289800 6
323.289800 17
323.289900 29
323.290100 2
323.290400 20
323.290400 27
323.290800 14
323.291100 85
323.291200 40
323.293000 59
323.293400 77
323.293600 54
323.294400 89
323.294600 88
323.295000 53
323.295200 24
323.296600 19
323.297400 80
323.297500 7
323.297800 29
323.297900 17
323.298000 6
323.298200 2
323.298700 20
323.298900 14
323.299300 85
323.299500 40
323.300300 27
323.301800 59
323.302000 54
323.304600 77
323.305100 89
323.305600 19
323.305800 88
323.306200 24
323.306200 53
323.308100 29
323.308500 80
323.308700 7
323.309100 17
323.309500 2
323.309600 6
323.309900 14
323.310200 20
323.310600 85
323.311200 40
323.313200 59
323.314400 54
323.316800 19
323.328800 59
323.378200 48
323.378600 90
323.379700 43
323.385800 48
323.386500 90
323.387500 43
323.395800 48
323.397600 90
323.397800 43
323.410500 48
323.411600 43
323.608700 33
323.608800 77
323.617000 33
323.617400 77
323.627500 33
323.628800 77
323.738000 74
323.740800 33
323.746200 74
323.751500 33
323.756900 74
324.222800 27
324.223000 66
324.223400 12
324.224800 31
324.230900 66
324.231000 27
324.231200 12
324.232900 31
324.241000 12
324.241400 66
324.241500 27
324.243000 31
324.256500 31
325.083000 10
325.083300 20
325.084500 34
325.084600 69
325.084700 56
325.084900 2
325.084900 8
325.084900 85
325.084900 92
325.085200 23
325.085600 59
325.085700 50
325.086500 99
325.087000 13
325.089300 42
325.089600 52
325.090700 10
325.090700 20
325.092100 69
325.092500 8
325.092500 56
325.092600 2
325.092700 34
325.092700 85
325.092900 23
325.093000 92
325.093700 59
325.094200 50
325.094300 99
325.094900 13
325.098000 42
325.098200 52
325.100900 20
325.101000 10
325.102200 69
325.102300 8
325.102800 56
325.102900 23
325.103000 2
325.103000 85
325.103300 92
325.103900 34
325.104400 59
325.104800 50
325.104800 99
325.105300 13
325.108300 52
325.110000 42
325.115900 69
325.116800 23
325.117000 8
325.117600 10
325.118100 92
325.118800 50
325.119000 59
325.119300 13
325.119400 99
325.125000 42
325.489300 92
325.491100 36
325.491400 34
325.497700 92
325.499200 36
325.499700 34
325.508600 92
325.509900 36
325.510400 34
325.624400 96
325.624500 80
325.624700 58
325.628400 43
325.628600 40
325.628700 70
325.629200 23
325.629700 26
325.629800 36
325.631800 37
325.632500 80
325.632600 60
325.632700 96
325.632800 58
325.633300 84
325.633800 48
325.634900 18
325.635400 92
325.636600 43
325.636900 40
325.637100 70
325.637500 23
325.638600 26
325.639500 42
325.639700 36
325.640200 37
325.640500 55
325.641200 60
325.641300 84
325.642200 48
325.643000 18
325.643400 80
325.643600 58
325.644000 96
325.645600 92
325.647200 43
325.648000 42
325.648100 40
325.648200 70
325.648800 23
325.648900 55
325.650100 26
325.650800 37
325.651400 84
325.652300 60
325.652900 48
325.653300 18
325.659500 55
325.659600 42
325.760800 66
325.761700 15
325.762900 55
325.768500 66
325.769700 15
325.773500 55
325.778100 66
325.779500 15
327.063700 24
327.064200 1
327.072100 24
327.072600 1
327.083300 24
327.084000 1
327.190300 48
327.190800 66
327.191500 75
327.192100 56
327.198300 48
327.199500 66
327.200300 75
327.200600 56
327.208900 48
327.211300 56
327.211500 66
327.212400 75
327.336800 51
327.336800 90
327.344700 32
327.344800 51
327.345200 90
327.353100 32
327.355700 51
327.356200 90
327.362600 32
327.376200 32
328.203100 83
328.203200 88
328.203300 14
328.204900 76
328.205000 27
328.205000 32
328.205000 53
328.205100 8
328.205100 93
328.205300 12
328.205600 50
328.207100 71
328.207500 40
328.208000 80
328.208500 43
328.208900 57
328.210300 18
328.210600 74
328.211000 35
328.211100 88
328.211200 83
328.211300 14
328.212000 30
328.212500 27
328.212800 53
328.212800 76
328.213200 8
328.213200 12
328.213200 32
328.213300 93
328.213500 13
328.213700 50
328.214000 56
328.214900 71
328.215300 40
328.215600 2
328.215900 45
328.216300 80
328.216500 43
328.216800 90
328.217000 57
328.217800 0
328.218000 21
328.218600 18
328.218600 35
328.219100 74
328.219700 30
328.220700 54
328.221200 83
328.221300 13
328.221300 14
328.221500 88
328.221900 27
328.221900 56
328.222000 53
328.222600 8
328.222900 76
328.223000 12
328.223000 32
328.223000 93
328.223100 50
328.223300 2
328.223400 45
328.224700 71
328.224900 40
328.225100 90
328.226000 0
328.226600 21
328.226700 43
328.226700 57
328.226700 80
328.228200 35
328.228500 18
328.228800 30
328.229200 74
328.229500 54
328.230900 13
328.231600 56
328.233300 2
328.233700 45
328.234400 83
328.234500 53
328.234700 14
328.234900 27
328.235800 12
328.235900 90
328.236100 0
328.238300 21
328.240300 54
328.562100 70
328.562100 89
328.569900 89
328.570100 70
328.580200 89
328.580300 70
328.845000 65
328.845300 99
328.845700 85
328.846200 47
328.846300 31
328.850900 88
328.852800 65
328.853100 99
328.853400 85
328.854200 31
328.854200 47
328.859300 88
328.863600 65
328.863800 99
328.864700 85
328.865400 31
328.865400 47
328.870500 88
329.942000 96
329.942500 88
329.943500 48
329.943900 45
329.944000 72
329.944200 81
329.944600 0
329.945200 76
329.945900 52
329.946000 13
329.946400 37
329.946900 62
329.947000 20
329.947500 99
329.947600 44
329.947800 90
329.949900 96
329.950400 88
329.951600 48
329.952000 45
329.952100 72
329.952500 81
329.953000 0
329.953500 76
329.954100 52
329.954200 13
329.954700 37
329.955000 62
329.955400 20
329.955900 44
329.955900 99
329.956200 90
329.960200 88
329.960300 96
329.960800 48
329.962000 45
329.962100 72
329.963000 76
329.963100 81
329.963300 0
329.964100 13
329.964300 52
329.964900 37
329.965000 62
329.965500 20
329.965600 99
329.965900 44
329.966700 90
332.950700 26
332.959300 26
332.969500 26
333.498300 58
333.498600 99
333.498900 96
333.499400 37
333.500500 76
333.501400 3
333.502000 20
333.502400 10
333.502400 12
333.503900 1
333.506200 34
333.506300 99
333.506400 14
333.506600 58
333.506700 96
333.507500 37
333.508500 76
333.509500 3
333.510100 20
333.510500 10
333.510500 12
333.511900 1
333.514500 14
333.514700 34
333.515900 99
333.516800 96
333.517500 58
333.518300 37
333.519600 76
333.519900 3
333.520600 20
333.521300 10
333.521400 12
333.522500 1
333.525700 14
333.526900 34
333.742600 27
333.743000 7
333.743200 35
333.743500 3
333.743600 52
333.743600 67
333.743700 70
333.743800 18
333.743900 26
333.744000 23
333.744000 62
333.744100 14
333.744100 45
333.744300 29
333.744400 2
333.744500 81
333.744600 76
333.744700 66
333.744700 75
333.744900 65
333.745200 64
333.745300 6
333.745300 78
333.745500 53
333.745500 59
333.745900 89
333.746300 20
333.746400 5
333.747100 92
333.749100 57
333.750300 27
333.751000 7
333.751400 35
333.751400 52
333.751700 18
333.751700 67
333.751700 70
333.751800 26
333.751900 3
333.752000 23
333.752100 62
333.752200 45
333.752300 29
333.752400 81
333.752500 14
333.752600 2
333.752700 65
333.752800 76
333.753000 66
333.753200 75
333.753400 59
333.753500 53
333.753600 6
333.753600 64
333.753700 78
333.754000 89
333.754600 5
333.754700 20
333.755400 92
333.757500 57
333.760900 27
333.761500 52
333.761700 7
333.762300 35
333.762300 70
333.762500 67
333.762600 26
333.762600 62
333.762900 3
333.762900 23
333.762900 45
333.762900 65
333.763000 18
333.763100 81
333.763300 29
333.763500 2
333.764400 59
333.764700 53
333.764700 75
333.764800 14
333.764800 76
333.765000 6
333.765100 64
333.765100 66
333.765300 78
333.765300 89
333.766400 5
333.766400 92
333.766500 20
333.768600 57
334.073900 31
334.074000 19
334.074100 56
334.074500 2
334.079900 5
334.081100 18
334.082100 36
334.082300 56
334.082400 19
334.082600 31
334.083400 2
334.088300 5
334.089400 18
334.090500 36
334.092300 56
334.092800 19
334.093300 31
334.094400 2
334.100000 18
334.100800 5
334.101100 36
334.501300 30
334.504000 32
334.509400 30
334.512600 32
334.520200 30
334.523500 32
335.734300 96
335.734500 36
335.734800 70
335.736800 52
335.736900 86
335.737000 79
335.738300 18
335.742200 36
335.742300 96
335.742800 70
335.745000 52
335.745100 86
335.745500 79
335.747000 18
335.752500 36
335.753200 96
335.753800 70
335.755500 52
335.756100 86
335.756400 79
335.758000 18
336.577900 43
336.578600 87
336.586900 43
336.587700 87
336.598100 43
336.599000 87
336.612000 43
336.656100 54
336.656200 37
336.656500 50
336.663700 37
336.663700 54
336.664100 50
336.673300 37
336.673700 54
336.674000 50
336.875800 0
336.875800 14
336.879700 22
336.883400 51
336.883900 0
336.884000 84
336.884500 14
336.885600 26
336.885700 45
336.887600 22
336.889600 3
336.891600 51
336.892300 84
336.893500 45
336.893900 26
336.894000 0
336.894600 14
336.897700 22
336.898000 3
336.901600 51
336.902100 84
336.903100 45
336.903900 26
336.907300 3
337.245600 21
337.248200 48
337.253800 21
337.256400 48
337.264500 21
337.267800 48
337.635300 20
337.636200 80
337.636700 10
337.637000 39
337.637100 93
337.642900 20
337.644400 80
337.644900 10
337.645400 39
337.645500 93
337.653300 20
337.655300 80
337.656000 10
337.656900 39
337.656900 93
337.902100 8
337.904900 29
337.904900 53
337.906300 51
337.906300 75
337.906900 38
337.907300 23
337.907300 66
337.909900 8
337.912600 53
337.913300 29
337.914000 51
337.914200 75
337.915100 38
337.915800 23
337.916000 66
337.920600 8
337.923600 53
337.925000 51
337.925200 29
337.925900 75
337.926500 38
337.927400 23
337.927500 66
338.177000 12
338.177300 81
338.184600 12
338.185200 81
338.194300 12
338.194600 81
338.320200 91
338.329000 91
338.339000 91
339.817000 22
339.818100 48
339.825200 22
339.826100 48
339.836400 22
339.836400 48
340.295500 49
340.296100 13
340.296100 30
340.296100 66
340.303400 49
340.304000 13
340.304000 30
340.304200 66
340.314000 30
340.314000 49
340.314800 13
340.315000 66
341.349400 53
341.357200 53
341.359600 96
341.366300 53
341.367700 96
341.377400 96
341.472900 70
341.478100 71
341.481600 70
341.486700 71
341.492700 70
341.498400 71
342.981600 3
342.982600 78
342.983100 30
342.983400 84
342.984800 53
342.988800 3
342.990100 78
342.991200 30
342.991300 84
342.992500 53
342.997900 3
342.999900 85
343.000300 78
343.000300 98
343.000900 30
343.001200 84
343.001700 82
343.002200 53
343.002600 65
343.004200 58
343.004800 31
343.007900 85
343.008500 98
343.009500 3
343.009500 82
343.010700 65
343.012100 58
343.013000 31
343.017300 85
343.017900 98
343.019200 82
343.021400 65
343.022300 58
343.023500 31
343.555000 8
343.555400 87
343.562200 4
343.562800 8
343.562900 12
343.563100 25
343.563300 87
343.570300 4
343.571300 12
343.571500 25
343.573100 8
343.573700 87
343.581000 4
343.582100 12
343.582100 25
343.587000 8
345.221400 19
345.229700 19
345.239800 19
345.255400 19
345.257700 45
345.258300 55
345.258700 88
345.259000 84
345.259600 0
345.265400 45
345.265900 55
345.266600 88
345.267100 84
345.267800 0
345.275100 45
345.275600 55
345.277000 88
345.277200 84
345.277600 0
345.348100 13
345.349300 47
345.350900 27
345.355800 13
345.356400 19
345.357500 47
345.358600 27
345.366100 13
345.367600 19
345.368300 47
345.368800 27
346.402700 98
346.410400 92
346.410900 98
346.418700 92
346.421600 98
346.430100 92
346.771200 87
346.771700 20
346.773600 84
346.774900 13
346.779200 87
346.780100 20
346.782100 84
346.784000 13
346.789800 87
346.790700 20
346.792300 84
346.793900 13
347.505800 33
347.513900 33
347.524000 33
347.924000 69
347.932000 69
347.942200 69
350.691500 71
350.691700 53
350.691800 90
350.692500 87
350.692700 29
350.693600 25
350.694600 61
350.695000 49
350.695200 33
350.695400 97
350.695600 2
350.696100 48
350.696300 80
350.696500 68
350.696600 65
350.696600 78
350.696700 89
350.697100 76
350.697800 86
350.698500 30
350.699300 53
350.699300 63
350.699800 71
350.699800 90
350.700400 87
350.700600 29
350.701400 25
350.702600 49
350.702800 61
350.703300 33
350.703400 2
350.703500 97
350.703700 48
350.704400 80
350.704500 65
350.704500 68
350.704900 89
350.705100 78
350.705300 76
350.705900 86
350.706800 24
350.706800 30
350.707500 63
350.709000 53
350.710000 90
350.710500 21
350.710600 29
350.710600 87
350.711000 71
350.711300 25
350.712600 49
350.713100 2
350.713300 61
350.713600 97
350.713700 48
350.713900 18
350.714100 33
350.714600 65
350.714800 80
350.715100 68
350.715300 24
350.715500 76
350.715500 89
350.716100 78
350.716400 86
350.717500 30
350.718000 63
350.718700 21
350.721600 53
350.722400 18
350.725500 25
350.725700 29
350.726200 24
350.728800 80
350.729600 21
350.730600 78
350.732400 18
351.237400 81
351.245100 81
351.255100 81
352.252200 47
352.252400 86
352.252400 99
352.254500 45
352.254600 70
352.254800 67
352.259800 86
352.260100 47
352.260200 99
352.262400 45
352.262700 67
352.262700 70
352.270000 86
352.270300 47
352.270900 99
352.272500 45
352.273300 67
352.273600 70
352.285800 45
352.385600 61
352.392000 86
352.393400 61
352.401700 86
352.403700 61
352.524900 3
352.525200 74
352.533600 3
352.533800 74
352.544100 3
352.545200 74
353.525500 76
353.529900 53
353.533500 76
353.538300 53
353.543900 76
353.548800 53
353.842500 64
353.842800 49
353.842900 81
353.843400 30
353.851000 49
353.851100 64
353.851200 81
353.852100 30
353.861800 49
353.862400 64
353.862400 81
353.863400 30
353.876600 81
353.877300 30
353.993400 11
353.993700 23
353.993800 44
353.994100 16
353.994400 41
353.994500 20
353.994600 53
353.996500 49
353.996700 65
353.996800 26
353.997100 28
353.997300 81
353.997400 60
353.997500 85
353.998900 47
354.000800 62
354.001400 11
354.001800 23
354.001800 44
354.001900 30
354.002400 53
354.002600 16
354.002700 20
354.002900 41
354.004700 26
354.004900 65
354.005000 28
354.005300 85
354.005500 60
354.006000 49
354.006100 13
354.007000 47
354.007600 81
354.009200 62
354.010800 30
354.011200 11
354.011500 23
354.011600 44
354.012100 53
354.012200 20
354.012900 16
354.013000 41
354.014200 26
354.014400 13
354.014600 28
354.015000 85
354.015100 65
354.015300 60
354.017000 47
354.017500 49
354.019300 62
354.021600 81
354.022000 30
354.023800 11
354.024500 20
354.024600 13
354.025100 53
354.026200 23
354.026800 26
354.027800 28
354.028700 16
354.028700 85
354.029400 60
354.030100 47
354.330800 57
354.331800 23
354.335500 8
354.339000 57
354.340300 23
354.343900 8
354.350600 57
354.351700 23
354.354500 8
355.836800 82
355.837000 36
355.838600 27
355.839300 75
355.844700 36
355.844800 82
355.847000 27
355.847700 75
355.854800 36
355.855400 82
355.857500 27
355.858700 75
355.918800 40
355.919200 92
355.925500 33
355.927200 40
355.927600 92
355.931200 62
355.933900 33
355.937500 40
355.937800 92
355.939200 62
355.943100 33
355.949300 62
355.955900 33
355.963000 62
356.522800 31
356.523100 89
356.523400 34
356.531100 31
356.531200 89
356.531500 34
356.542500 31
356.542700 89
356.543300 34
356.624400 30
356.624500 19
356.624700 54
356.624900 99
356.625100 0
356.625100 2
356.625300 67
356.625800 34
356.625900 49
356.626200 9
356.626600 75
356.626700 53
356.626800 89
356.632400 30
356.632700 19
356.633000 54
356.633300 2
356.633400 0
356.633500 67
356.633600 99
356.634200 49
356.634800 53
356.634900 75
356.635200 9
356.636000 34
356.637800 89
356.642300 30
356.643100 19
356.643600 2
356.643600 54
356.643600 67
356.643800 99
356.644100 0
356.644400 49
356.645200 53
356.645600 75
356.646000 9
356.658300 2
356.659100 67
356.659400 53
356.674900 31
356.676800 53
356.685300 31
356.951100 30
356.959800 30
356.970100 30
357.390900 5
357.391200 26
357.391300 18
357.391300 36
357.391600 21
357.392300 31
357.392700 99
357.392800 27
357.399000 5
357.399500 26
357.399500 36
357.399600 18
357.400100 21
357.400300 31
357.401000 99
357.401100 27
357.409500 26
357.409600 5
357.409700 36
357.410300 18
357.411000 21
357.411000 31
357.411600 27
357.411900 99
357.673700 14
357.674500 52
357.678000 2
357.681400 14
357.682400 52
357.686300 2
357.690600 14
357.691200 52
357.696200 2
359.300500 80
359.301100 8
359.302700 23
359.308500 80
359.309000 8
359.310800 23
359.319200 80
359.319700 8
359.321600 23
361.510000 71
361.518100 71
361.528600 71
361.541200 71
362.954900 13
362.955000 4
362.956200 36
362.956300 22
362.956500 39
362.957900 0
362.958200 7
362.958400 91
362.958600 49
362.959000 71
362.959700 47
362.959800 31
362.961300 85
362.962100 61
362.963000 13
362.963100 4
362.964000 36
362.964200 22
362.964200 39
362.965800 0
362.966000 7
362.966000 49
362.966200 91
362.967200 71
362.967400 30
362.967400 47
362.967600 31
362.969000 85
362.970000 61
362.972100 13
362.972300 4
362.973100 36
362.973600 22
362.974300 39
362.974800 30
362.974900 0
362.975100 7
362.975400 49
362.975400 91
362.977000 47
362.977200 71
362.977900 31
362.979200 85
362.980600 61
362.984700 30
363.691900 12
363.693200 18
363.700100 12
363.701100 18
363.710200 12
363.711500 18
365.969400 13
365.977500 13
365.988200 13
366.610600 72
366.610800 10
366.611000 3
366.612600 51
366.618700 10
366.618800 72
366.619100 3
366.621000 51
366.628800 10
366.628900 72
366.630000 3
366.631900 51
366.809100 96
366.817500 96
366.828500 96
367.296900 13
367.296900 36
367.305300 13
367.305300 36
367.314800 13
367.315200 36
368.303900 12
368.311700 12
368.322600 12
370.900300 8
370.900900 36
370.901000 25
370.901500 16
370.902500 63
370.907800 8
370.908900 25
370.908900 36
370.909100 16
370.911000 63
370.917800 8
370.919500 25
370.919600 36
370.920000 16
370.922700 63
371.091200 63
371.093200 18
371.099700 63
371.100800 18
371.110700 18
371.111800 63
371.506500 63
371.515100 63
371.525900 63
371.790400 59
371.791200 83
371.798400 59
371.799600 83
371.808200 59
371.810100 83
371.820200 59
371.822900 83
372.199400 53
372.200500 63
372.201300 62
372.202700 19
372.205900 14
372.206000 8
372.207000 53
372.208500 63
372.208700 76
372.209000 62
372.210900 19
372.214100 8
372.214800 14
372.217000 53
372.217200 76
372.218200 63
372.218800 62
372.220700 19
372.223700 8
372.225800 14
372.228100 76
372.229800 53
372.231800 63
372.234500 19
372.237600 8
372.240200 76
372.244200 53
372.506000 80
372.514500 80
372.525000 80
372.633100 92
372.637000 63
372.637500 58
372.640800 92
372.645300 63
372.645900 58
372.651000 92
372.656400 58
372.656400 63
374.155700 34
374.155800 95
374.157200 8
374.157500 44
374.160700 3
374.161800 16
374.161800 36
374.162800 76
374.163600 34
374.163800 95
374.165300 8
374.165400 44
374.168700 3
374.170100 16
374.170100 36
374.171000 76
374.174300 34
374.174500 95
374.175300 8
374.176100 44
374.179800 3
374.181000 16
374.181100 36
374.181800 76
374.191600 44
374.194400 36
374.195100 16
374.466400 78
374.474500 78
374.485100 78
374.652200 2
374.654500 65
374.654700 33
374.655100 70
374.655900 10
374.660200 2
374.662400 33
374.662600 65
374.662900 70
374.664300 10
374.670700 2
374.672300 33
374.673100 65
374.673400 70
374.674700 10
376.121400 96
376.122400 92
376.122500 3
376.123200 34
376.123600 23
376.123600 93
376.124100 84
376.124500 61
376.124600 53
376.125300 13
376.126200 65
376.128000 15
376.128200 5
376.129200 81
376.129600 96
376.130000 3
376.130000 87
376.130300 92
376.131100 34
376.131400 23
376.131500 93
376.131900 84
376.132000 53
376.132500 61
376.133500 13
376.133700 65
376.134500 52
376.135000 55
376.136200 5
376.136300 15
376.137800 87
376.138100 81
376.139300 47
376.139400 96
376.139600 3
376.140100 92
376.140800 34
376.141200 23
376.141300 53
376.141600 93
376.141700 84
376.142800 52
376.142900 61
376.143700 13
376.143800 55
376.144100 65
376.146400 5
376.147000 15
376.147800 47
376.148100 87
376.148800 81
376.152800 52
376.153200 3
376.154300 53
376.155400 55
376.158400 47
376.393600 12
376.401200 12
376.410800 12
376.936700 20
376.936800 41
376.936800 99
376.938600 2
376.939200 51
376.940800 26
376.940800 36
376.940800 95
376.944400 20
376.944800 41
376.944800 99
376.946800 2
376.947100 51
376.948900 36
376.949300 26
376.949500 95
376.953700 20
376.953900 99
376.954700 41
376.956800 2
376.957400 51
376.959500 36
376.960100 26
376.960800 95
376.969400 41
376.973500 26
377.285700 92
377.286700 16
377.287000 30
377.292600 8
377.293700 92
377.294900 16
377.295700 30
377.301500 8
377.304400 92
377.306100 16
377.306200 30
377.311400 8
377.317600 30
378.087000 88
378.094600 88
378.104000 88
378.115300 88
379.779400 70
379.781700 95
379.787300 70
379.789900 95
379.797000 70
379.800000 95
380.360700 75
380.361700 97
380.362600 47
380.363200 20
380.366000 36
380.368600 75
380.369800 97
380.370600 47
380.371400 20
380.373900 36
380.378600 75
380.379900 97
380.380800 47
380.381200 20
380.383300 36
380.396700 47
380.865800 33
380.868300 55
380.868500 48
380.869000 22
380.869400 70
380.869500 2
380.869500 12
380.870800 52
380.871400 71
380.871600 67
380.873000 40
380.874100 33
380.874100 43
380.874700 23
380.876300 48
380.876300 55
380.877100 22
380.877500 2
380.877600 70
380.877800 12
380.878800 52
380.879500 71
380.879800 67
380.880900 40
380.882400 43
380.882800 23
380.883900 33
380.886000 48
380.886200 55
380.886700 22
380.887100 2
380.887500 70
380.887800 12
380.888700 52
380.889900 71
380.890600 67
380.891100 40
380.893300 43
380.893500 23
380.899900 55
380.901000 22
381.224900 36
381.232900 36
381.243500 36
381.939500 16
381.944300 35
381.947600 16
381.952700 35
381.958100 16
381.964300 35
382.066400 74
382.074400 74
382.084200 74
382.469700 7
382.470300 89
382.475500 31
382.478200 7
382.478500 89
382.484000 31
382.489000 89
382.489100 7
382.494700 31
382.899100 32
382.901000 5
382.901100 78
382.901300 53
382.901300 62
382.901300 64
382.901400 51
382.901400 84
382.901400 86
382.901500 67
382.902000 13
382.902600 2
382.902700 18
382.903100 41
382.903400 47
382.903500 26
382.903600 45
382.903700 59
382.903800 55
382.904900 7
382.905400 14
382.906100 70
382.906400 32
382.908300 81
382.908500 44
382.908800 78
382.908900 84
382.909000 5
382.909000 53
382.909100 51
382.909100 67
382.909200 86
382.909300 62
382.909500 64
382.909600 13
382.910300 2
382.910300 18
382.910900 41
382.911000 47
382.911400 45
382.911400 55
382.911600 59
382.911700 26
382.913000 7
382.913400 14
382.914000 70
382.915900 32
382.916400 81
382.916600 44
382.918700 53
382.918700 84
382.918900 67
382.919000 78
382.919300 51
382.919300 86
382.919600 5
382.919600 62
382.919900 2
382.920000 64
382.920200 13
382.920200 18
382.921100 47
382.921400 41
382.921700 55
382.921700 59
382.921800 45
382.922900 26
382.923400 14
382.923700 7
382.924200 70
382.926100 81
382.927700 44
385.162900 18
385.162900 57
385.163000 70
385.163200 40
385.163500 31
385.167600 72
385.170900 18
385.171000 57
385.171000 70
385.171200 40
385.171900 31
385.176200 72
385.181400 40
385.181500 70
385.181800 57
385.181900 18
385.182800 31
385.187000 72
385.197400 18
385.197900 70
385.445500 26
385.446500 4
385.446800 53
385.447000 90
385.447100 65
385.447600 48
385.447600 51
385.447700 37
385.449800 8
385.449900 92
385.450000 70
385.450600 36
385.450600 56
385.450800 85
385.451200 40
385.451300 99
385.451400 72
385.451600 60
385.452500 20
385.452800 3
385.453100 26
385.454200 4
385.454300 53
385.454700 65
385.454900 48
385.454900 90
385.455100 51
385.455600 37
385.457800 70
385.458100 8
385.458400 92
385.458600 56
385.458700 36
385.458800 85
385.459500 40
385.459500 99
385.459600 60
385.460300 20
385.460300 72
385.460800 3
385.461900 26
385.462900 53
385.464000 4
385.464000 65
385.464100 48
385.464600 51
385.465000 37
385.465100 90
385.467600 70
385.468100 36
385.468200 56
385.468700 8
385.468700 85
385.469300 99
385.469500 92
385.469800 40
385.470000 60
385.470100 20
385.470300 3
385.472800 72
385.475800 53
385.483300 3
385.682100 97
385.682400 36
385.683700 66
385.684100 13
385.684100 46
385.685100 89
385.690000 97
385.691100 36
385.691500 66
385.692000 13
385.692400 46
385.693500 89
385.700600 97
385.701900 66
385.702800 13
385.702900 36
385.703000 46
385.703900 89
385.716000 66
385.717400 13
385.718400 89
386.335600 45
386.335800 10
386.338900 5
386.339300 21
386.343800 45
386.344100 10
386.347200 5
386.347800 21
386.354300 45
386.355000 10
386.358200 21
386.358300 5
386.385000 75
386.387200 86
386.388000 6
386.388200 29
386.393000 75
386.395400 86
386.396000 29
386.396200 6
386.404100 75
386.405900 29
386.406500 86
386.406900 6
386.418800 29
386.420600 86
386.577400 44
386.582400 10
386.582500 58
386.585800 44
386.591400 58
386.591500 10
386.597300 44
386.603100 58
386.604700 10
386.611500 44
386.727700 53
386.727900 8
386.728300 76
386.728700 87
386.729000 10
386.733400 25
386.734200 33
386.735100 8
386.735200 53
386.736100 76
386.737000 87
386.737400 45
386.738600 10
386.740900 96
386.741100 25
386.742400 33
386.744600 8
386.744800 53
386.745900 45
386.746300 76
386.747600 87
386.749000 96
386.751400 25
386.752800 33
386.753200 10
386.756700 45
386.757100 53
386.757500 8
386.759900 96
387.641000 42
387.641600 78
387.647000 62
387.647900 30
387.649300 42
387.649700 78
387.655500 62
387.656400 30
387.660300 78
387.660500 42
387.666000 62
387.666300 30
388.583200 29
388.583700 23
388.591200 23
388.591300 29
388.592100 81
388.599900 81
388.600100 23
388.601400 29
388.609900 81
389.223900 83
389.224200 6
389.232200 83
389.232500 6
389.243100 6
389.243100 83
390.356400 48
390.356500 92
390.364500 48
390.364700 92
390.375200 48
390.375700 92
390.389200 48
390.392500 92
391.728600 55
391.736700 55
391.747900 55
392.177400 53
392.180400 45
392.180500 8
392.185200 53
392.186500 10
392.187400 75
392.188200 8
392.188700 45
392.195200 10
392.195400 53
392.195600 75
392.198700 8
392.199600 45
392.206200 75
392.206800 10
392.213400 8
392.216900 45
392.220600 75
392.962700 67
392.965000 26
392.970900 67
392.972900 26
392.981400 67
392.983000 26
394.647400 38
394.651000 51
394.655700 38
394.660000 51
394.666400 38
394.670200 51
394.682000 51
397.262900 45
397.263000 81
397.263200 12
397.263600 77
397.267000 18
397.270900 45
397.271200 81
397.271300 12
397.272000 77
397.275400 18
397.281400 45
397.281500 81
397.281600 12
397.282800 77
397.285100 18
397.295200 12
397.995900 37
398.004100 37
398.014700 37
398.577500 62
398.578200 40
398.578600 21
398.585500 62
398.586500 21
398.586600 40
398.595600 62
398.596400 21
398.596900 40
399.405300 45
399.405600 62
399.406000 37
399.411700 39
399.411800 44
399.412800 62
399.413100 37
399.413100 45
399.420000 39
399.420300 44
399.422700 62
399.423100 37
399.423200 45
399.430400 39
399.431100 44
399.437400 62
399.442900 44
399.600200 8
399.608100 8
399.617000 8
399.630200 8
446.241200 28
446.249600 28
446.260300 28
464.476600 30
464.477600 59
464.485000 30
464.486300 59
464.496000 30
464.497400 59
464.509300 30
464.511000 59
560.256500 22
560.264800 22
560.275300 22
585.285800 98
585.286100 81
585.288000 38
585.288400 37
585.294200 98
585.294400 81
585.296800 38
585.297200 37
585.305200 98
585.305500 81
585.307400 37
585.308500 38
833.621600 81
833.629200 81
833.638600 81
841.480300 36
841.488300 36
841.497400 36
841.509500 36
906.176700 48
909.108700 53
919.641700 97
919.649400 97
919.658500 97
919.669800 97
947.716100 27
947.718600 36
947.719500 53
961.226600 56
972.549200 73
973.312600 1
973.353500 48
992.591300 18
992.599300 27
992.599700 24
992.611700 24
992.621400 24
992.632300 24
994.798700 67
998.074700 33
